# ---------------------------------------------- header, 5 lines----------------
# Spectral Response Curve (monochrome)
# Taken from company pdf, 14-04-2021
#  Wavelength(nm)  Response (A/W)
# ------------------------------------------------------------------------------
   3.5036801e+02   1.1227154e-02
   3.5772816e+02   1.4360313e-02
   3.5846418e+02   1.7597911e-02
   3.6288027e+02   2.1044386e-02
   3.6508832e+02   2.4281984e-02
   3.6876840e+02   2.8459530e-02
   3.7097645e+02   3.3159269e-02
   3.7244848e+02   3.7650131e-02
   3.7612856e+02   4.2245431e-02
   3.7686457e+02   4.7049608e-02
   3.7833660e+02   5.2167102e-02
   3.7980864e+02   5.7389034e-02
   3.8348871e+02   6.3550914e-02
   3.8643278e+02   6.9921671e-02
   3.8864082e+02   7.6501305e-02
   3.9232090e+02   8.2349869e-02
   3.9379293e+02   8.7989556e-02
   3.9600098e+02   9.3107050e-02
   3.9820903e+02   9.7702350e-02
   4.0262512e+02   1.0177546e-01
   4.0556919e+02   1.0605744e-01
   4.0777723e+02   1.1013055e-01
   4.1145731e+02   1.1389034e-01
   4.1660942e+02   1.1785901e-01
   4.1955348e+02   1.2161880e-01
   4.2323356e+02   1.2485640e-01
   4.2544161e+02   1.2746736e-01
   4.2912169e+02   1.3028721e-01
   4.3427380e+02   1.3258486e-01
   4.3868989e+02   1.3561358e-01
   4.4016192e+02   1.3874674e-01
   4.4384200e+02   1.4261097e-01
   4.4678606e+02   1.4626632e-01
   4.5193817e+02   1.5023499e-01
   4.5782630e+02   1.5389034e-01
   4.6077036e+02   1.5775457e-01
   4.6445044e+02   1.6099217e-01
   4.7033857e+02   1.6412533e-01
   4.7475466e+02   1.6715405e-01
   4.7769872e+02   1.7007833e-01
   4.7990677e+02   1.7195822e-01
   4.8285083e+02   1.7321149e-01
   4.8505888e+02   1.7383812e-01
   4.8800294e+02   1.7456919e-01
   4.9021099e+02   1.7530026e-01
   4.9389107e+02   1.7665796e-01
   4.9536310e+02   1.7853786e-01
   4.9536310e+02   1.8125326e-01
   4.9757115e+02   1.8375979e-01
   4.9904318e+02   1.8584856e-01
   5.0198724e+02   1.8793734e-01
   5.0787537e+02   1.9002611e-01
   5.1008342e+02   1.9190601e-01
   5.1155545e+02   1.9389034e-01
   5.1376349e+02   1.9608355e-01
   5.1597154e+02   1.9754569e-01
   5.1817959e+02   1.9911227e-01
   5.2185967e+02   1.9932115e-01
   5.2333170e+02   1.9890339e-01
   5.2333170e+02   1.9859008e-01
   5.2627576e+02   1.9911227e-01
   5.2848381e+02   1.9973890e-01
   5.2995584e+02   2.0193211e-01
   5.3216389e+02   2.0475196e-01
   5.3363592e+02   2.0715405e-01
   5.3584396e+02   2.0913838e-01
   5.3731600e+02   2.1018277e-01
   5.3878803e+02   2.1039164e-01
   5.4173209e+02   2.1028721e-01
   5.4467615e+02   2.1039164e-01
   5.4688420e+02   2.1080940e-01
   5.4982826e+02   2.1174935e-01
   5.5203631e+02   2.1342037e-01
   5.5571639e+02   2.1582245e-01
   5.5645240e+02   2.1780679e-01
   5.5866045e+02   2.1906005e-01
   5.6013248e+02   2.1968668e-01
   5.6234053e+02   2.1937337e-01
   5.6454858e+02   2.1822454e-01
   5.6675662e+02   2.1749347e-01
   5.6970069e+02   2.1770235e-01
   5.7190873e+02   2.1864230e-01
   5.7338077e+02   2.2031332e-01
   5.7485280e+02   2.2229765e-01
   5.7706084e+02   2.2490862e-01
   5.7926889e+02   2.2741514e-01
   5.8074092e+02   2.3023499e-01
   5.8294897e+02   2.3284595e-01
   5.8442100e+02   2.3493473e-01
   5.8662905e+02   2.3587467e-01
   5.8810108e+02   2.3639687e-01
   5.9030913e+02   2.3629243e-01
   5.9251717e+02   2.3597911e-01
   5.9546124e+02   2.3587467e-01
   5.9840530e+02   2.3618799e-01
   6.0061335e+02   2.3681462e-01
   6.0355741e+02   2.3765013e-01
   6.0502944e+02   2.3879896e-01
   6.0576546e+02   2.3994778e-01
   6.0797350e+02   2.4109661e-01
   6.0870952e+02   2.4203655e-01
   6.1091757e+02   2.4266319e-01
   6.1312561e+02   2.4214099e-01
   6.1386163e+02   2.4130548e-01
   6.1606968e+02   2.3994778e-01
   6.1754171e+02   2.3838120e-01
   6.1974975e+02   2.3691906e-01
   6.2195780e+02   2.3681462e-01
   6.2342983e+02   2.3754569e-01
   6.2490186e+02   2.3900783e-01
   6.2784593e+02   2.4120104e-01
   6.3226202e+02   2.4391645e-01
   6.3299804e+02   2.4715405e-01
   6.3373405e+02   2.4997389e-01
   6.3594210e+02   2.5258486e-01
   6.3815015e+02   2.5540470e-01
   6.3815015e+02   2.5822454e-01
   6.3962218e+02   2.5989556e-01
   6.4256624e+02   2.6125326e-01
   6.4771835e+02   2.6208877e-01
   6.5066241e+02   2.6198433e-01
   6.5434249e+02   2.6177546e-01
   6.5655054e+02   2.6198433e-01
   6.6391070e+02   2.6250653e-01
   6.6538273e+02   2.6334204e-01
   6.6832679e+02   2.6449086e-01
   6.6979882e+02   2.6532637e-01
   6.7200687e+02   2.6584856e-01
   6.7568695e+02   2.6563969e-01
   6.7642296e+02   2.6490862e-01
   6.7789500e+02   2.6334204e-01
   6.7863101e+02   2.6104439e-01
   6.8083906e+02   2.5853786e-01
   6.8231109e+02   2.5634465e-01
   6.8451914e+02   2.5477807e-01
   6.8599117e+02   2.5404700e-01
   6.8819921e+02   2.5425587e-01
   6.9335132e+02   2.5488251e-01
   6.9703140e+02   2.5603133e-01
   6.9776742e+02   2.5738903e-01
   6.9850343e+02   2.5874674e-01
   6.9997547e+02   2.6000000e-01
   7.0218351e+02   2.6177546e-01
   7.0512758e+02   2.6344648e-01
   7.0733562e+02   2.6543081e-01
   7.0807164e+02   2.6720627e-01
   7.0954367e+02   2.6710183e-01
   7.1175172e+02   2.6626632e-01
   7.1984789e+02   2.6605744e-01
   7.2131992e+02   2.6501305e-01
   7.2205594e+02   2.6355091e-01
   7.2279195e+02   2.6386423e-01
   7.2500000e+02   2.6417755e-01
   7.2941609e+02   2.6386423e-01
   7.3383219e+02   2.6407311e-01
   7.3824828e+02   2.6490862e-01
   7.3972031e+02   2.6563969e-01
   7.4340039e+02   2.6657963e-01
   7.4634446e+02   2.6731070e-01
   7.4855250e+02   2.6751958e-01
   7.5223258e+02   2.6689295e-01
   7.5370461e+02   2.6563969e-01
   7.5444063e+02   2.6417755e-01
   7.5444063e+02   2.6240209e-01
   7.5517664e+02   2.6010444e-01
   7.5664868e+02   2.5780679e-01
   7.6032875e+02   2.5561358e-01
   7.6032875e+02   2.5248042e-01
   7.6253680e+02   2.4976501e-01
   7.6621688e+02   2.4778068e-01
   7.7431305e+02   2.4652742e-01
   7.7799313e+02   2.4621410e-01
   7.7872915e+02   2.4694517e-01
   7.8388126e+02   2.4788512e-01
   7.8461727e+02   2.4934726e-01
   7.8682532e+02   2.5101828e-01
   7.8976938e+02   2.5268930e-01
   7.9050540e+02   2.5467363e-01
   7.9271344e+02   2.5644909e-01
   7.9786555e+02   2.5676240e-01
   8.0007360e+02   2.5634465e-01
   8.0522571e+02   2.5477807e-01
   8.0522571e+02   2.5101828e-01
   8.0596173e+02   2.4663185e-01
   8.1184985e+02   2.4276762e-01
   8.1405790e+02   2.3806789e-01
   8.1626595e+02   2.3326371e-01
   8.2215407e+02   2.2950392e-01
   8.2730618e+02   2.2490862e-01
   8.3319431e+02   2.2010444e-01
   8.4202650e+02   2.1550914e-01
   8.4497056e+02   2.1060052e-01
   8.4791462e+02   2.0579634e-01
   8.5380275e+02   2.0099217e-01
   8.5527478e+02   1.9535248e-01
   8.5895486e+02   1.8960836e-01
   8.6263494e+02   1.8355091e-01
   8.6705103e+02   1.7770235e-01
   8.6778705e+02   1.7279373e-01
   8.7073111e+02   1.6861619e-01
   8.7367517e+02   1.6537859e-01
   8.8029931e+02   1.6328982e-01
   8.8250736e+02   1.6099217e-01
   8.9207556e+02   1.5848564e-01
   9.0017174e+02   1.5556136e-01
   9.0311580e+02   1.5211488e-01
   9.0900393e+02   1.4793734e-01
   9.1194799e+02   1.4323760e-01
   9.1562807e+02   1.3801567e-01
   9.1930815e+02   1.3227154e-01
   9.2151619e+02   1.2475196e-01
   9.2740432e+02   1.1765013e-01
   9.3108440e+02   1.1013055e-01
   9.3550049e+02   1.0208877e-01
   9.4359666e+02   9.5404700e-02
   9.5169284e+02   9.0913838e-02
   9.5463690e+02   8.5587467e-02
   9.5978901e+02   8.1096606e-02
   9.6788518e+02   7.7232376e-02
   9.7156526e+02   7.3263708e-02
   9.7524534e+02   6.8146214e-02
   9.7745339e+02   6.4073107e-02
   9.8481354e+02   6.0000000e-02
   9.8702159e+02   5.5091384e-02
   9.8996565e+02   4.9973890e-02
   9.9732581e+02   4.5169713e-02
   1.0010059e+03   4.0678851e-02
   1.0083660e+03   3.5979112e-02
   1.0098381e+03   3.2532637e-02
   1.0157262e+03   2.8668407e-02
   1.0216143e+03   2.5326371e-02
   1.0289745e+03   2.1462141e-02
   1.0370707e+03   1.8015666e-02
   1.0429588e+03   1.5195822e-02
   1.0503189e+03   1.3315927e-02
   1.0532630e+03   1.1644909e-02
   1.0562071e+03   1.0182768e-02
   1.0613592e+03   9.0339426e-03
   1.0650393e+03   7.6762402e-03
   1.0679833e+03   6.4229765e-03
   1.0753435e+03   5.4830287e-03
   1.0768155e+03   4.8563969e-03
   1.0819676e+03   4.4386423e-03
   1.0841757e+03   4.1253264e-03
   1.0856477e+03   3.7075718e-03
   1.0922718e+03   3.4986945e-03
   1.0966879e+03   3.2201915e-03
   1.0988960e+03   3.3942559e-03
